IESNA:LM-63-1995
[TEST] Master
[DATE] 2021.11.11
[MANUFAC] SLED
[LUMINAIRE] 
211111-FPL-Standdard-Hort-G2


Average Data : Voltage = 42.06(V), Current = 1.200(A), Watt = 50.47(W)
TILT=NONE
1 8596.64 1.00 91 17 1 2 0.000 0.000 0.000
1.00 1.00 50.47
0.0 1.0 2.0 3.0 4.0 5.0 6.0 7.0 8.0 9.0 10.0 11.0 12.0 13.0 14.0 15.0 16.0 17.0 18.0 19.0 
20.0 21.0 22.0 23.0 24.0 25.0 26.0 27.0 28.0 29.0 30.0 31.0 32.0 33.0 34.0 35.0 36.0 37.0 38.0 39.0 
40.0 41.0 42.0 43.0 44.0 45.0 46.0 47.0 48.0 49.0 50.0 51.0 52.0 53.0 54.0 55.0 56.0 57.0 58.0 59.0 
60.0 61.0 62.0 63.0 64.0 65.0 66.0 67.0 68.0 69.0 70.0 71.0 72.0 73.0 74.0 75.0 76.0 77.0 78.0 79.0 
80.0 81.0 82.0 83.0 84.0 85.0 86.0 87.0 88.0 89.0 90.0 
0.0 22.5 45.0 67.5 90.0 112.5 135.0 157.5 180.0 202.5 225.0 247.5 270.0 292.5 315.0 337.5 360.0 
2890.91 2891.49 2890.98 2889.33 2887.43 2884.52 2881.43 2876.46 2870.70 2864.67 2858.24 2849.54 2840.76 2830.94 2819.94 2808.74 2796.46 2784.13 2770.31 2754.88 2739.43 2723.32 2705.70 2686.70 2667.81 2647.88 2626.63 2606.59 2583.67 2560.67 2535.90 2511.06 2485.55 2459.69 2431.72 2403.57 2373.65 2343.12 2313.52 2281.87 2249.21 2216.06 2181.18 2147.39 2110.51 2073.31 2035.65 1997.14 1957.30 1918.10 1876.94 1834.89 1791.79 1747.91 1702.57 1659.60 1613.34 1567.96 1520.12 1471.02 1423.96 1373.90 1323.34 1272.93 1221.25 1170.76 1116.84 1065.15 1011.92 958.60 907.27 854.51 799.81 745.69 690.92 636.67 582.83 530.26 479.21 428.69 378.23 330.53 283.51 240.46 198.69 160.05 125.19 68.73 33.53 25.87 17.34 
2890.91 2890.77 2890.50 2888.69 2886.71 2884.63 2880.92 2876.14 2871.45 2864.70 2858.00 2849.30 2840.33 2830.75 2820.02 2808.92 2797.48 2783.65 2769.19 2754.08 2739.25 2722.60 2705.30 2687.32 2668.21 2647.45 2627.51 2606.03 2583.75 2560.32 2535.40 2511.51 2486.43 2459.50 2431.32 2403.70 2373.97 2344.32 2313.02 2282.33 2249.55 2215.37 2181.63 2147.26 2111.69 2073.12 2036.29 1997.63 1957.54 1918.10 1877.48 1834.97 1792.99 1748.85 1704.76 1659.50 1613.08 1565.88 1518.84 1471.10 1422.19 1373.50 1323.52 1273.25 1220.10 1169.51 1116.81 1063.34 1011.17 957.80 903.61 850.46 797.73 743.76 689.20 652.65 580.07 529.13 477.76 426.81 378.01 330.22 284.85 244.13 203.58 166.13 130.93 74.70 33.09 24.23 16.02 
2890.91 2890.02 2889.25 2888.23 2886.28 2882.95 2879.59 2875.16 2869.05 2862.85 2856.13 2846.84 2838.17 2828.08 2817.57 2806.52 2793.63 2780.64 2766.31 2751.47 2735.59 2719.34 2701.27 2683.95 2663.94 2643.85 2623.27 2600.99 2579.32 2555.41 2531.29 2506.90 2480.24 2452.75 2425.05 2396.20 2368.98 2338.82 2306.72 2275.76 2242.91 2210.08 2175.79 2140.00 2104.51 2067.63 2028.96 1990.69 1949.69 1911.08 1870.22 1828.21 1784.82 1742.39 1697.63 1651.81 1606.24 1559.12 1514.06 1463.87 1413.76 1364.64 1314.34 1262.81 1211.24 1158.59 1107.07 1055.06 1001.29 946.86 894.69 820.40 784.94 731.96 677.81 625.02 574.12 521.85 471.61 420.67 368.03 319.86 273.45 232.83 192.99 156.83 123.44 92.77 38.99 24.01 13.85 
2890.91 2889.33 2888.45 2887.11 2885.06 2881.61 2877.40 2872.59 2866.30 2859.68 2852.10 2844.09 2834.51 2824.96 2813.70 2801.93 2789.26 2776.29 2761.08 2747.15 2731.05 2713.84 2697.00 2677.20 2658.34 2636.93 2616.44 2595.20 2572.81 2548.53 2525.15 2499.29 2472.68 2445.81 2419.52 2390.12 2359.93 2328.63 2298.28 2265.83 2233.03 2199.59 2165.70 2129.65 2093.41 2057.35 2019.00 1981.03 1940.22 1900.48 1858.18 1816.26 1772.60 1729.26 1684.37 1639.19 1593.96 1546.36 1497.69 1449.29 1399.61 1349.50 1300.30 1248.18 1195.86 1143.51 1092.97 1038.24 986.53 930.87 875.55 822.48 768.37 714.69 662.34 609.93 557.84 506.84 455.92 402.51 349.78 293.66 241.87 196.73 158.11 127.83 99.57 73.96 55.13 30.80 15.57 
2890.91 2892.24 2890.31 2888.53 2886.18 2883.54 2878.01 2872.33 2866.35 2859.63 2851.67 2842.41 2832.59 2822.11 2811.91 2799.34 2786.40 2772.60 2757.02 2742.21 2725.74 2708.64 2690.97 2671.44 2651.18 2631.81 2610.04 2587.65 2564.06 2540.92 2515.14 2488.83 2462.62 2436.42 2407.20 2378.40 2349.82 2319.05 2287.82 2254.14 2220.46 2186.97 2151.88 2116.49 2078.91 2041.31 2003.44 1964.43 1923.14 1882.66 1840.44 1798.14 1755.92 1710.47 1666.01 1619.03 1572.63 1524.18 1476.63 1429.30 1378.84 1327.66 1275.63 1225.20 1173.70 1121.29 1068.06 1014.21 959.40 906.95 852.67 798.48 745.95 693.87 652.60 587.59 535.61 483.24 432.16 382.26 335.28 288.47 242.51 199.84 163.65 125.11 93.65 68.52 45.21 24.84 5.50 
2890.91 2891.81 2890.69 2887.11 2884.98 2879.83 2875.88 2868.57 2862.77 2855.20 2846.50 2837.82 2827.84 2816.24 2804.71 2791.44 2779.01 2765.45 2749.63 2733.46 2716.80 2698.39 2679.36 2659.99 2640.70 2619.06 2597.84 2574.86 2551.73 2526.35 2501.91 2475.51 2448.75 2420.54 2392.30 2362.89 2332.55 2300.18 2270.40 2236.61 2203.09 2170.00 2133.49 2097.92 2060.23 2022.23 1984.36 1944.25 1903.87 1862.91 1821.44 1777.80 1734.51 1690.83 1645.46 1599.04 1551.94 1503.97 1456.26 1406.84 1358.58 1307.32 1255.31 1204.99 1153.70 1101.86 1048.89 997.50 946.30 893.17 820.44 785.31 728.78 673.53 618.61 565.84 514.55 465.02 412.42 364.93 309.92 256.35 193.71 142.04 100.73 67.92 43.40 25.86 14.63 9.15 6.81 
2890.91 2890.58 2889.19 2886.55 2882.17 2877.51 2872.59 2865.76 2858.50 2850.79 2842.47 2832.03 2821.65 2809.91 2797.93 2784.75 2770.66 2756.57 2740.74 2724.30 2706.69 2688.76 2669.01 2649.72 2628.85 2607.53 2584.23 2561.44 2536.94 2513.30 2487.95 2461.34 2435.48 2405.99 2377.12 2346.83 2317.34 2285.90 2252.81 2220.76 2186.78 2152.44 2117.82 2080.22 2042.99 2005.39 1967.63 1928.13 1888.69 1848.10 1806.62 1764.91 1722.24 1679.19 1635.02 1591.00 1542.17 1495.72 1447.00 1393.63 1341.92 1289.99 1240.15 1187.69 1135.60 1080.90 1028.68 976.57 922.67 869.06 815.64 762.98 709.88 656.18 599.51 530.67 449.37 392.04 341.50 274.70 222.16 189.42 154.90 126.58 95.72 54.52 31.47 22.80 15.64 9.61 8.13 
2890.91 2890.05 2887.17 2883.54 2879.88 2875.37 2868.73 2862.67 2855.68 2846.42 2837.69 2826.78 2815.99 2805.51 2792.16 2779.44 2765.27 2749.20 2732.87 2718.06 2698.85 2680.49 2660.95 2640.22 2619.62 2598.13 2574.57 2551.94 2527.79 2502.73 2477.09 2450.86 2423.85 2394.89 2365.51 2336.69 2305.76 2274.13 2241.28 2208.11 2175.28 2141.50 2105.66 2071.98 2035.07 1998.03 1960.02 1920.61 1879.93 1840.70 1796.46 1753.68 1706.60 1660.51 1614.04 1566.01 1517.85 1469.96 1420.75 1368.21 1322.43 1271.84 1218.90 1170.50 1117.42 1065.85 1013.20 960.69 907.03 820.42 781.52 704.73 623.39 560.49 506.58 441.20 372.79 322.67 282.38 243.79 208.64 178.78 148.20 95.58 56.84 43.57 32.90 23.90 16.97 10.54 9.26 
2890.91 2889.27 2885.75 2882.84 2878.47 2873.72 2867.79 2859.92 2853.14 2843.88 2834.46 2824.53 2813.22 2800.81 2788.08 2774.85 2760.92 2745.36 2727.51 2711.52 2693.48 2676.16 2657.00 2636.69 2615.05 2592.96 2570.17 2547.51 2522.88 2496.86 2472.12 2446.29 2417.79 2389.69 2360.52 2330.18 2299.67 2269.09 2236.85 2203.73 2171.81 2137.60 2104.40 2068.29 2031.46 1994.32 1955.33 1915.83 1875.18 1832.00 1786.47 1741.88 1696.19 1649.68 1604.51 1558.32 1509.68 1462.29 1412.88 1364.74 1314.61 1265.91 1216.66 1163.77 1111.74 1060.13 1008.07 955.00 889.41 816.79 730.36 656.07 604.85 550.21 480.64 403.18 354.88 319.17 282.31 246.93 212.94 180.28 141.49 82.30 57.94 44.72 34.29 25.37 18.01 10.21 9.04 
2890.91 2888.74 2885.62 2881.85 2877.43 2872.68 2866.83 2860.19 2852.10 2844.01 2834.65 2824.75 2812.82 2801.32 2788.51 2774.98 2759.26 2744.37 2728.71 2711.79 2693.93 2676.35 2656.26 2636.61 2615.45 2593.94 2570.54 2546.52 2522.05 2498.62 2472.36 2445.30 2418.14 2390.17 2361.05 2330.18 2298.31 2266.95 2235.38 2202.77 2169.28 2134.58 2099.97 2064.93 2028.80 1991.78 1953.48 1914.79 1874.94 1832.72 1790.61 1747.11 1701.26 1654.64 1606.88 1560.00 1513.50 1464.16 1414.75 1365.54 1317.12 1265.99 1216.39 1163.88 1112.70 1062.48 1008.13 957.56 904.04 820.44 779.64 696.74 607.83 545.77 491.52 427.79 353.44 310.16 275.20 239.57 201.69 169.57 142.18 94.09 56.30 44.81 34.26 25.49 18.33 11.78 10.25 
2890.91 2888.42 2886.28 2882.74 2879.43 2874.04 2868.59 2861.81 2854.24 2846.23 2836.76 2827.36 2816.07 2804.71 2791.20 2778.13 2764.04 2749.81 2733.72 2715.95 2698.31 2679.69 2660.98 2640.96 2619.59 2598.19 2575.58 2552.74 2528.22 2502.55 2476.39 2451.20 2423.53 2396.09 2367.24 2336.95 2304.66 2273.84 2241.41 2208.91 2174.91 2140.59 2105.66 2068.80 2032.75 1994.13 1954.93 1915.75 1876.30 1836.46 1794.67 1753.81 1710.76 1668.62 1623.17 1577.70 1532.37 1484.91 1436.72 1385.43 1333.35 1281.66 1230.78 1178.29 1125.38 1073.32 1023.32 967.97 916.16 863.00 810.22 757.18 702.70 652.57 590.89 519.52 445.40 388.29 328.04 262.65 216.76 181.12 150.30 117.39 88.64 43.97 32.28 24.62 17.33 11.00 8.80 
2890.91 2888.34 2885.88 2883.51 2879.96 2875.18 2869.71 2864.06 2856.85 2849.08 2840.07 2830.54 2820.42 2809.78 2796.91 2783.97 2770.55 2754.80 2739.59 2722.86 2706.61 2687.37 2669.20 2649.93 2628.64 2606.38 2585.16 2561.89 2537.82 2512.50 2487.55 2462.52 2434.76 2406.77 2378.80 2348.38 2318.01 2286.19 2253.93 2222.23 2189.19 2153.45 2119.48 2082.52 2045.40 2006.54 1969.92 1929.15 1889.03 1848.26 1806.01 1764.99 1721.20 1676.60 1631.28 1585.95 1539.85 1493.32 1444.03 1397.37 1347.12 1297.73 1246.10 1195.94 1145.59 1095.59 1042.67 990.56 938.45 885.27 820.41 780.91 725.63 669.97 615.55 563.10 513.13 460.70 412.58 364.10 308.46 252.71 181.34 136.29 92.60 62.64 41.00 22.54 15.48 10.53 7.37 
2890.91 2892.66 2890.58 2888.58 2886.44 2881.40 2877.02 2871.50 2864.80 2857.25 2848.76 2839.53 2829.60 2818.26 2807.99 2794.62 2780.61 2766.09 2750.91 2735.86 2718.70 2701.38 2682.30 2663.91 2644.11 2622.34 2600.62 2577.45 2553.76 2530.83 2504.95 2478.21 2452.78 2424.35 2395.91 2367.64 2337.11 2306.93 2274.16 2241.52 2208.80 2174.70 2139.84 2103.20 2067.39 2028.98 1991.17 1949.91 1910.38 1870.62 1829.01 1786.74 1743.00 1698.97 1654.56 1608.30 1561.85 1514.78 1467.58 1418.27 1369.87 1318.58 1270.16 1218.44 1167.53 1115.15 1062.21 1009.43 956.87 904.44 851.68 798.48 744.39 693.02 639.64 587.25 536.02 485.36 434.24 385.74 337.80 291.46 246.75 205.32 166.86 130.11 97.78 72.33 49.27 28.79 7.79 
2890.91 2892.16 2891.33 2889.14 2887.46 2882.74 2879.40 2874.36 2867.60 2860.24 2853.70 2843.88 2833.79 2823.12 2813.19 2800.41 2786.56 2773.64 2758.57 2743.84 2726.38 2709.71 2691.37 2671.95 2652.12 2631.52 2610.73 2587.73 2565.98 2541.35 2516.00 2490.27 2463.96 2436.44 2408.53 2379.97 2350.14 2320.46 2288.49 2255.74 2223.11 2188.76 2153.96 2118.01 2082.46 2044.51 2006.91 1967.76 1927.84 1886.79 1845.80 1804.94 1761.15 1716.66 1671.96 1628.54 1582.00 1534.40 1488.08 1439.39 1391.01 1341.86 1290.74 1240.58 1187.56 1135.76 1084.21 1030.71 978.28 924.22 871.87 817.32 765.49 712.13 658.26 607.38 556.23 504.27 453.76 405.60 354.45 300.56 248.39 203.46 166.86 133.25 103.65 76.61 56.09 31.79 16.90 
2890.91 2892.05 2892.18 2890.34 2889.03 2885.11 2881.45 2875.18 2869.74 2863.23 2855.62 2847.30 2838.17 2828.38 2816.53 2805.16 2792.16 2778.69 2764.28 2749.41 2733.54 2716.67 2697.64 2679.20 2659.27 2639.42 2617.96 2595.31 2573.08 2549.49 2524.16 2499.37 2473.03 2444.85 2418.51 2389.61 2358.89 2329.45 2297.78 2265.43 2233.97 2199.62 2165.57 2129.41 2093.81 2056.92 2019.38 1980.65 1941.15 1900.46 1860.08 1818.55 1774.23 1732.22 1687.17 1642.04 1596.18 1550.39 1502.77 1453.83 1405.78 1355.45 1305.56 1255.87 1203.84 1152.02 1100.42 1046.65 994.38 940.90 888.55 820.43 779.52 726.55 673.49 621.85 569.44 518.94 469.89 420.47 368.86 322.72 279.58 238.94 197.44 158.23 126.46 95.52 43.03 23.84 15.08 
2890.91 2891.17 2892.21 2891.19 2888.77 2885.32 2881.80 2876.81 2871.37 2864.75 2857.86 2849.49 2840.41 2830.30 2818.98 2808.04 2795.34 2782.58 2768.55 2753.60 2738.07 2721.15 2703.49 2685.24 2665.54 2646.54 2624.93 2603.50 2579.91 2556.96 2532.78 2508.18 2481.41 2455.13 2428.09 2398.76 2369.25 2339.62 2308.10 2275.65 2245.04 2211.44 2177.58 2141.55 2105.90 2068.85 2030.66 1992.85 1953.86 1912.79 1871.23 1829.49 1787.46 1743.96 1700.46 1653.87 1609.74 1561.69 1513.50 1465.74 1417.95 1366.75 1318.16 1268.85 1216.68 1164.81 1113.18 1061.01 1006.39 954.09 900.38 847.73 793.51 740.77 685.43 652.60 575.48 523.76 473.46 424.90 376.42 330.06 285.90 244.10 204.67 167.90 134.97 79.99 34.82 25.82 18.02 
2890.91 2891.49 2890.98 2889.33 2887.43 2884.52 2881.43 2876.46 2870.70 2864.67 2858.24 2849.54 2840.76 2830.94 2819.94 2808.74 2796.46 2784.13 2770.31 2754.88 2739.43 2723.32 2705.70 2686.70 2667.81 2647.88 2626.63 2606.59 2583.67 2560.67 2535.90 2511.06 2485.55 2459.69 2431.72 2403.57 2373.65 2343.12 2313.52 2281.87 2249.21 2216.06 2181.18 2147.39 2110.51 2073.31 2035.65 1997.14 1957.30 1918.10 1876.94 1834.89 1791.79 1747.91 1702.57 1659.60 1613.34 1567.96 1520.12 1471.02 1423.96 1373.90 1323.34 1272.93 1221.25 1170.76 1116.84 1065.15 1011.92 958.60 907.27 854.51 799.81 745.69 690.92 636.67 582.83 530.26 479.21 428.69 378.23 330.53 283.51 240.46 198.69 160.05 125.19 68.73 33.53 25.87 17.34 
